 6.050      40.000      4.47000
 6.100      53.000      7.28000
 6.150      49.000      4.95000
 6.200      59.000      7.68000
 6.250      50.000      5.00000
 6.300      56.000      5.29000
 6.350      55.000      5.24000
 6.400      54.000      5.20000
 6.450      58.000      5.39000
 6.500      55.000      5.24000
 6.550      60.000      5.48000
 6.600      56.000      5.29000
 6.650      50.000      5.00000
 6.700      49.000      4.95000
 6.750      56.000      5.29000
 6.800      53.000      5.15000
 6.850      54.000      5.20000
 6.900      56.000      5.29000
 6.950      67.000      5.79000
 7.000      68.000      5.83000
 7.050      67.000      5.79000
 7.100      54.000      5.20000
 7.150      70.000      5.92000
 7.200      60.000      5.48000
 7.250      64.000      5.66000
 7.300      66.000      5.74000
 7.350      63.000      5.61000
 7.400      65.000      5.70000
 7.450      70.000      5.92000
 7.500      65.000      5.70000
 7.550      63.000      5.61000
 7.600      63.000      5.61000
 7.650      62.000      5.57000
 7.700      75.000      6.12000
 7.750      63.000      5.61000
 7.800      66.000      5.74000
 7.850      63.000      5.61000
 7.900      63.000      5.61000
 7.950      58.000      5.39000
 8.000      61.000      5.52000
 8.050      58.000      5.39000
 8.100      68.000      5.83000
 8.150      62.000      5.57000
 8.200      56.000      5.29000
 8.250      60.000      5.48000
 8.300      68.000      5.83000
 8.350      56.000      5.29000
 8.400      65.000      5.70000
 8.450      69.000      5.87000
 8.500      61.000      5.52000
 8.550      64.000      5.66000
 8.600      69.000      5.87000
 8.650      65.000      5.70000
 8.700      61.000      5.52000
 8.750      61.000      5.52000
 8.800      65.000      5.70000
 8.850      50.000      5.00000
 8.900      57.000      5.34000
 8.950      57.000      5.34000
 9.000      64.000      5.66000
 9.050      74.000      6.08000
 9.100      79.000      6.28000
 9.150      70.000      5.92000
 9.200      67.000      5.79000
 9.250      59.000      5.43000
 9.300      60.000      5.48000
 9.350      74.000      6.08000
 9.400      62.000      5.57000
 9.450      70.000      5.92000
 9.500      66.000      5.74000
 9.550      63.000      5.61000
 9.600      66.000      5.74000
 9.650      57.000      5.34000
 9.700      51.000      5.05000
 9.750      66.000      5.74000
 9.800      59.000      5.43000
 9.850      66.000      5.74000
 9.900      55.000      5.24000
 9.950      64.000      5.66000
10.000      71.000      5.96000
10.050      68.000      5.83000
10.100      67.000      5.79000
10.150      58.000      5.39000
10.200      61.000      5.52000
10.250      70.000      5.92000
10.300      69.000      5.87000
10.350      66.000      5.74000
10.400      55.000      5.24000
10.450      56.000      5.29000
10.500      62.000      5.57000
10.550      66.000      5.74000
10.600      59.000      5.43000
10.650      56.000      5.29000
10.700      54.000      5.20000
10.750      55.000      5.24000
10.800      55.000      5.24000
10.850      59.000      5.43000
10.900      60.000      5.48000
10.950      66.000      5.74000
11.000      62.000      5.57000
11.050      54.000      5.20000
11.100      55.000      5.24000
11.150      55.000      5.24000
11.200      64.000      5.66000
11.250      68.000      5.83000
11.300      66.000      5.74000
11.350      63.000      5.61000
11.400      58.000      5.39000
11.450      62.000      5.57000
11.500      56.000      5.29000
11.550      60.000      5.48000
11.600      60.000      5.48000
11.650      63.000      5.61000
11.700      55.000      5.24000
11.750      63.000      5.61000
11.800      63.000      5.61000
11.850      55.000      5.24000
11.900      59.000      5.43000
11.950      64.000      5.66000
12.000      60.000      7.75000
12.050      60.000      4.47000
12.100      56.000      4.32000
12.150      63.000      4.58000
12.200      61.000      4.51000
12.250      71.000      4.86000
12.300      60.000      4.47000
12.350      64.000      4.62000
12.400      67.000      4.73000
12.450      62.000      4.55000
12.500      57.000      3.77000
12.550      62.000      3.94000
12.600      65.000      4.03000
12.650      57.000      3.77000
12.700      57.000      3.77000
12.750      68.000      4.12000
12.800      66.000      4.06000
12.850      66.000      4.06000
12.900      63.000      3.55000
12.950      63.000      3.55000
13.000      69.000      3.71000
13.050      65.000      3.61000
13.100      72.000      3.79000
13.150      83.000      4.07000
13.200      80.000      4.00000
13.250      86.000      4.15000
13.300      88.000      4.20000
13.350      92.000      4.29000
13.400      95.000      4.36000
13.450      93.000      4.82000
13.500     100.000      4.47000
13.550     105.000      4.58000
13.600      94.000      4.34000
13.650     103.000      4.14000
13.700     100.000      4.47000
13.750     103.000      4.54000
13.800     108.000      4.65000
13.850      97.000      4.92000
13.900      98.000      4.95000
13.950     114.000      4.77000
14.000     102.000      5.83000
14.050     145.000      4.92000
14.100     145.000      5.39000
14.150     162.000      5.20000
14.200     180.000      5.48000
14.250     194.000      5.69000
14.300     213.000      5.96000
14.350     250.000      6.45000
14.400     281.000      6.84000
14.450     302.000      7.09000
14.500     333.000      8.16000
14.550     348.000      9.33000
14.600     378.000      8.69000
14.650     377.000      8.68000
14.700     357.000      8.45000
14.750     339.000      7.52000
14.800     296.000      7.02000
14.850     265.000      6.65000
14.900     218.000      6.60000
14.950     190.000      6.16000
15.000     167.000      5.28000
15.050     132.000      4.69000
15.100     112.000      4.32000
15.150      97.000      4.02000
15.200      80.000      3.65000
15.250      71.000      3.44000
15.300      72.000      3.46000
15.350      66.000      3.32000
15.400      63.000      3.24000
15.450      61.000      3.19000
15.500      58.000      3.11000
15.550      60.000      3.16000
15.600      57.000      3.08000
15.650      58.000      3.11000
15.700      52.000      2.94000
15.750      52.000      2.94000
15.800      54.000      3.00000
15.850      58.000      3.11000
15.900      56.000      3.06000
15.950      52.000      2.94000
16.000      51.000      2.92000
16.050      60.000      3.16000
16.100      56.000      3.06000
16.150      53.000      2.97000
16.200      56.000      3.06000
16.250      62.000      3.21000
16.300      59.000      3.14000
16.350      57.000      3.08000
16.400      60.000      3.16000
16.450      58.000      3.11000
16.500      55.000      3.03000
16.550      55.000      3.03000
16.600      57.000      3.08000
16.650      57.000      3.08000
16.700      56.000      3.06000
16.750      58.000      3.11000
16.800      59.000      3.14000
16.850      62.000      3.21000
16.900      58.000      3.11000
16.950      59.000      3.14000
17.000      57.000      3.08000
17.050      61.000      3.19000
17.100      57.000      3.08000
17.150      57.000      3.08000
17.200      55.000      3.03000
17.250      54.000      3.00000
17.300      56.000      3.06000
17.350      57.000      3.08000
17.400      58.000      3.11000
17.450      56.000      3.06000
17.500      56.000      3.06000
17.550      54.000      3.00000
17.600      53.000      2.97000
17.650      55.000      3.03000
17.700      58.000      3.11000
17.750      56.000      3.06000
17.800      58.000      3.11000
17.850      56.000      3.06000
17.900      54.000      3.00000
17.950      55.000      3.03000
18.000      55.000      7.42000
18.050      55.000      2.62000
18.100      58.000      2.69000
18.150      57.000      2.67000
18.200      61.000      2.76000
18.250      59.000      2.72000
18.300      57.000      2.67000
18.350      57.000      2.67000
18.400      57.000      2.67000
18.450      56.000      2.65000
18.500      58.000      2.69000
18.550      63.000      2.81000
18.600      61.000      2.76000
18.650      61.000      2.76000
18.700      63.000      2.81000
18.750      58.000      2.69000
18.800      61.000      2.76000
18.850      58.000      2.69000
18.900      59.000      2.72000
18.950      58.000      2.69000
19.000      59.000      2.72000
19.050      58.000      2.69000
19.100      55.000      2.62000
19.150      55.000      2.62000
19.200      56.000      2.65000
19.250      57.000      2.67000
19.300      59.000      2.72000
19.350      57.000      2.67000
19.400      53.000      2.57000
19.450      56.000      2.65000
19.500      56.000      2.65000
19.550      57.000      2.67000
19.600      57.000      2.67000
19.650      59.000      2.72000
19.700      59.000      2.72000
19.750      59.000      2.72000
19.800      60.000      2.74000
19.850      60.000      2.74000
19.900      57.000      2.67000
19.950      55.000      2.62000
20.000      54.000      2.60000
20.050      54.000      2.60000
20.100      55.000      2.62000
20.150      56.000      2.65000
20.200      56.000      2.65000
20.250      54.000      2.60000
20.300      56.000      2.65000
20.350      56.000      2.65000
20.400      58.000      2.69000
20.450      58.000      2.69000
20.500      58.000      2.69000
20.550      55.000      2.62000
20.600      55.000      2.62000
20.650      55.000      2.62000
20.700      58.000      2.69000
20.750      60.000      2.74000
20.800      57.000      2.67000
20.850      59.000      2.72000
20.900      56.000      2.65000
20.950      57.000      2.67000
21.000      56.000      2.65000
21.050      56.000      2.65000
21.100      55.000      2.62000
21.150      57.000      2.67000
21.200      56.000      2.65000
21.250      55.000      2.62000
21.300      54.000      2.60000
21.350      57.000      2.67000
21.400      61.000      2.76000
21.450      57.000      2.67000
21.500      54.000      2.60000
21.550      53.000      2.57000
21.600      55.000      2.62000
21.650      56.000      2.65000
21.700      58.000      2.69000
21.750      54.000      2.60000
21.800      52.000      2.55000
21.850      55.000      2.62000
21.900      54.000      2.60000
21.950      58.000      2.69000
22.000      54.000      2.60000
22.050      57.000      2.67000
22.100      57.000      2.67000
22.150      53.000      2.57000
22.200      52.000      2.55000
22.250      55.000      2.62000
22.300      61.000      2.76000
22.350      59.000      2.72000
22.400      62.000      2.78000
22.450      65.000      2.85000
22.500      71.000      2.98000
22.550      76.000      3.08000
22.600      85.000      3.26000
22.650      93.000      3.41000
22.700     109.000      3.69000
22.750     116.000      3.81000
22.800     136.000      4.12000
22.850     154.000      4.39000
22.900     167.000      4.57000
22.950     174.000      4.99000
23.000     204.000      5.05000
23.050     236.000      5.43000
23.100     264.000      5.74000
23.150     292.000      6.04000
23.200     318.000      6.30000
23.250     350.000      6.61000
23.300     400.000      7.07000
23.350     449.000      7.49000
23.400     517.000      8.04000
23.450     565.000      9.70000
23.500     656.000      9.68000
23.550     760.000      9.75000
23.600     861.000     10.37000
23.650     936.000     10.82000
23.700     997.000     11.16000
23.750    1021.000     11.30000
23.800    1013.000     12.03000
23.850     966.000     11.75000
23.900     894.000     12.21000
23.950     805.000     10.72000
24.000     700.000     26.46000
24.050     600.000      7.75000
24.100     514.000      7.17000
24.150     438.000      6.62000
24.200     379.000      6.16000
24.250     342.000      5.85000
24.300     288.000      6.00000
24.350     283.000      5.32000
24.400     275.000      5.53000
24.450     286.000      5.35000
24.500     303.000      5.50000
24.550     342.000      5.85000
24.600     390.000      6.24000
24.650     448.000      6.69000
24.700     510.000      7.14000
24.750     575.000      7.58000
24.800     632.000      7.95000
24.850     660.000      8.12000
24.900     672.000      8.20000
24.950     656.000      8.10000
25.000     604.000      7.77000
25.050     550.000      7.42000
25.100     468.000      7.21000
25.150     390.000      6.24000
25.200     318.000      5.64000
25.250     251.000      5.28000
25.300     195.000      4.94000
25.350     150.000      4.08000
25.400     118.000      3.44000
25.450      98.000      3.13000
25.500      88.000      2.97000
25.550      77.000      2.77000
25.600      71.000      2.66000
25.650      63.000      2.51000
25.700      61.000      2.47000
25.750      60.000      2.45000
25.800      59.000      2.43000
25.850      60.000      2.45000
25.900      60.000      2.45000
25.950      57.000      2.39000
26.000      58.000      2.41000
26.050      64.000      2.53000
26.100      62.000      2.49000
26.150      64.000      2.53000
26.200      70.000      2.65000
26.250      72.000      2.68000
26.300      72.000      2.68000
26.350      77.000      2.77000
26.400      82.000      2.86000
26.450      89.000      2.98000
26.500     102.000      3.19000
26.550     109.000      3.30000
26.600     122.000      3.49000
26.650     132.000      3.83000
26.700     150.000      4.08000
26.750     165.000      4.28000
26.800     178.000      4.72000
26.850     201.000      5.36000
26.900     231.000      5.74000
26.950     257.000      6.54000
27.000     299.000      7.06000
27.050     360.000      7.17000
27.100     411.000      7.66000
27.150     468.000      7.65000
27.200     507.000      7.96000
27.250     504.000      7.94000
27.300     503.000      7.93000
27.350     447.000      8.63000
27.400     392.000      8.08000
27.450     371.000      6.09000
27.500     309.000      5.86000
27.550     248.000      4.98000
27.600     193.000      4.39000
27.650     160.000      4.00000
27.700     134.000      3.66000
27.750     108.000      3.29000
27.800      90.000      3.00000
27.850      78.000      2.79000
27.900      75.000      2.74000
27.950      70.000      2.65000
28.000      75.000      2.74000
28.050      75.000      2.74000
28.100      80.000      2.83000
28.150      83.000      2.88000
28.200      92.000      3.03000
28.250     101.000      3.18000
28.300     115.000      3.39000
28.350     124.000      3.71000
28.400     142.000      3.77000
28.450     162.000      4.02000
28.500     169.000      4.60000
28.550     213.000      4.62000
28.600     251.000      5.01000
28.650     290.000      5.39000
28.700     328.000      5.73000
28.750     392.000      6.26000
28.800     470.000      6.86000
28.850     545.000      8.25000
28.900     608.000      8.72000
28.950     686.000      9.26000
29.000     740.000     10.28000
29.050     805.000      8.97000
29.100     791.000      8.89000
29.150     721.000      9.49000
29.200     668.000      9.14000
29.250     602.000      8.67000
29.300     538.000      8.20000
29.350     477.000      8.25000
29.400     428.000      8.45000
29.450     419.000      7.24000
29.500     422.000      7.26000
29.550     458.000      6.77000
29.600     485.000      6.96000
29.650     516.000      7.18000
29.700     544.000      7.38000
29.750     535.000      8.18000
29.800     528.000      8.12000
29.850     486.000      8.33000
29.900     463.000      7.17000
29.950     386.000      7.43000
30.000     345.000     18.57000
30.050     313.000      5.90000
30.100     285.000      5.09000
30.150     262.000      4.88000
30.200     262.000      4.88000
30.250     270.000      4.95000
30.300     294.000      5.17000
30.350     319.000      5.65000
30.400     354.000      6.27000
30.450     396.000      6.63000
30.500     453.000      7.09000
30.550     527.000      7.65000
30.600     592.000      8.11000
30.650     673.000      8.65000
30.700     738.000      9.06000
30.750     822.000      8.64000
30.800     815.000      9.52000
30.850     771.000     10.49000
30.900     703.000     10.02000
30.950     625.000      8.84000
31.000     522.000      8.08000
31.050     434.000      7.37000
31.100     356.000      6.67000
31.150     272.000      5.83000
31.200     219.000      4.93000
31.250     177.000      4.01000
31.300     132.000      3.46000
31.350     106.000      3.10000
31.400      86.000      2.80000
31.450      80.000      2.70000
31.500      68.000      2.49000
31.550      62.000      2.37000
31.600      59.000      2.32000
31.650      58.000      2.30000
31.700      56.000      2.26000
31.750      56.000      2.26000
31.800      56.000      2.26000
31.850      59.000      2.32000
31.900      58.000      2.30000
31.950      59.000      2.32000
32.000      58.000      2.30000
32.050      57.000      2.28000
32.100      57.000      2.28000
32.150      60.000      2.34000
32.200      59.000      2.32000
32.250      56.000      2.26000
32.300      58.000      2.30000
32.350      60.000      2.34000
32.400      60.000      2.34000
32.450      62.000      2.37000
32.500      63.000      2.39000
32.550      64.000      2.41000
32.600      65.000      2.43000
32.650      65.000      2.43000
32.700      67.000      2.47000
32.750      72.000      2.56000
32.800      78.000      2.66000
32.850      85.000      2.78000
32.900      91.000      2.88000
32.950      99.000      3.00000
33.000     107.000      3.12000
33.050     120.000      3.30000
33.100     134.000      3.49000
33.150     147.000      3.66000
33.200     162.000      3.84000
33.250     182.000      4.07000
33.300     189.000      4.15000
33.350     197.000      4.23000
33.400     207.000      4.34000
33.450     225.000      4.52000
33.500     237.000      4.64000
33.550     258.000      5.08000
33.600     281.000      5.05000
33.650     304.000      5.26000
33.700     327.000      5.45000
33.750     324.000      5.69000
33.800     312.000      5.59000
33.850     295.000      5.43000
33.900     244.000      5.52000
33.950     221.000      5.26000
34.000     201.000      4.73000
34.050     165.000      4.28000
34.100     148.000      3.67000
34.150     128.000      3.41000
34.200     122.000      3.33000
34.250     112.000      3.19000
34.300     104.000      3.07000
34.350     107.000      3.12000
34.400     116.000      3.25000
34.450     129.000      3.42000
34.500     142.000      3.77000
34.550     166.000      3.88000
34.600     186.000      4.11000
34.650     213.000      4.40000
34.700     235.000      4.62000
34.750     269.000      4.95000
34.800     288.000      5.12000
34.850     302.000      5.24000
34.900     306.000      5.27000
34.950     300.000      5.22000
35.000     284.000      5.62000
35.050     300.000      5.48000
35.100     309.000      5.86000
35.150     336.000      5.80000
35.200     361.000      6.33000
35.250     424.000      6.21000
35.300     446.000      7.47000
35.350     507.000      6.79000
35.400     520.000      6.88000
35.450     504.000      6.77000
35.500     462.000      6.48000
35.550     405.000      6.07000
35.600     337.000      5.81000
35.650     290.000      5.13000
35.700     232.000      4.59000
35.750     179.000      4.03000
35.800     134.000      3.49000
35.850     109.000      3.15000
35.900      90.000      2.86000
35.950      78.000      2.66000
36.000      68.000      5.83000
36.050      61.000      2.47000
36.100      60.000      2.24000
36.150      60.000      2.24000
36.200      57.000      2.18000
36.250      57.000      2.18000
36.300      56.000      2.16000
36.350      56.000      2.16000
36.400      56.000      2.16000
36.450      59.000      2.22000
36.500      59.000      2.22000
36.550      62.000      2.27000
36.600      61.000      2.25000
36.650      59.000      2.22000
36.700      63.000      2.29000
36.750      68.000      2.38000
36.800      71.000      2.43000
36.850      80.000      2.58000
36.900      89.000      2.72000
36.950      93.000      2.78000
37.000      98.000      2.98000
37.050     125.000      3.23000
37.100     144.000      3.62000
37.150     162.000      4.24000
37.200     186.000      4.55000
37.250     230.000      5.06000
37.300     294.000      5.72000
37.350     352.000      6.25000
37.400     436.000      6.30000
37.450     466.000      8.81000
37.500     520.000      8.06000
37.550     554.000      7.85000
37.600     549.000      8.28000
37.650     560.000      7.48000
37.700     536.000      7.32000
37.750     509.000      7.98000
37.800     493.000      7.02000
37.850     445.000      7.97000
37.900     476.000      7.27000
37.950     510.000      7.14000
38.000     549.000      7.81000
38.050     595.000      9.96000
38.100     703.000     10.82000
38.150     893.000      9.96000
38.200    1036.000     10.73000
38.250    1113.000     12.61000
38.300    1114.000     16.69000
38.350    1061.000     18.81000
38.400    1028.000     18.51000
38.450     918.000     17.49000
38.500     852.000     14.59000
38.550     742.000     10.30000
38.600     616.000      7.85000
38.650     460.000      6.47000
38.700     341.000      5.84000
38.750     243.000      4.70000
38.800     170.000      3.76000
38.850     135.000      3.35000
38.900     108.000      3.00000
38.950      92.000      2.77000
39.000      80.000      2.58000
39.050      73.000      2.47000
39.100      66.000      2.35000
39.150      64.000      2.31000
39.200      62.000      2.27000
39.250      62.000      2.27000
39.300      63.000      2.29000
39.350      61.000      2.25000
39.400      60.000      2.24000
39.450      59.000      2.22000
39.500      61.000      2.25000
39.550      59.000      2.22000
39.600      60.000      2.24000
39.650      61.000      2.25000
39.700      62.000      2.27000
39.750      58.000      2.20000
39.800      57.000      2.18000
39.850      57.000      2.18000
39.900      60.000      2.24000
39.950      56.000      2.16000
40.000      59.000      2.22000
40.050      58.000      2.20000
40.100      58.000      2.20000
40.150      57.000      2.18000
40.200      62.000      2.27000
40.250      65.000      2.33000
40.300      63.000      2.29000
40.350      64.000      2.31000
40.400      67.000      2.36000
40.450      67.000      2.36000
40.500      71.000      2.43000
40.550      76.000      2.52000
40.600      88.000      2.71000
40.650      98.000      2.86000
40.700     105.000      2.96000
40.750     118.000      3.14000
40.800     120.000      3.30000
40.850     134.000      3.66000
40.900     155.000      3.59000
40.950     160.000      4.00000
41.000     173.000      4.65000
41.050     198.000      4.69000
41.100     227.000      5.33000
41.150     262.000      6.12000
41.200     304.000      6.59000
41.250     362.000      7.77000
41.300     395.000      9.94000
41.350     507.000     11.26000
41.400     620.000     12.45000
41.450     774.000     13.91000
41.500     950.000     10.90000
41.550    1007.000     11.22000
41.600    1047.000     11.44000
41.650     942.000     13.73000
41.700     896.000     11.31000
41.750     763.000     10.44000
41.800     606.000     10.05000
41.850     500.000      7.45000
41.900     390.000      6.98000
41.950     294.000      6.06000
42.000     265.000     11.51000
42.050     160.000      4.47000
42.100     139.000      3.55000
42.150     111.000      2.92000
42.200      97.000      2.73000
42.250      88.000      2.60000
42.300      85.000      2.56000
42.350      84.000      2.54000
42.400      84.000      2.54000
42.450      91.000      2.65000
42.500     102.000      2.80000
42.550     107.000      2.87000
42.600     107.000      2.87000
42.650     110.000      2.91000
42.700     110.000      2.91000
42.750     100.000      2.77000
42.800      96.000      2.72000
42.850      87.000      2.59000
42.900      82.000      2.51000
42.950      78.000      2.45000
43.000      70.000      2.32000
43.050      66.000      2.25000
43.100      64.000      2.22000
43.150      62.000      2.18000
43.200      60.000      2.15000
43.250      59.000      2.13000
43.300      57.000      2.09000
43.350      59.000      2.13000
43.400      59.000      2.13000
43.450      60.000      2.15000
43.500      60.000      2.15000
43.550      60.000      2.15000
43.600      57.000      2.09000
43.650      55.000      2.06000
43.700      58.000      2.11000
43.750      60.000      2.15000
43.800      60.000      2.15000
43.850      59.000      2.13000
43.900      59.000      2.13000
43.950      64.000      2.22000
44.000      60.000      2.15000
44.050      63.000      2.20000
44.100      64.000      2.22000
44.150      62.000      2.18000
44.200      61.000      2.17000
44.250      61.000      2.17000
44.300      62.000      2.18000
44.350      58.000      2.11000
44.400      56.000      2.08000
44.450      54.000      2.04000
44.500      56.000      2.08000
44.550      59.000      2.13000
44.600      61.000      2.17000
44.650      63.000      2.20000
44.700      58.000      2.11000
44.750      65.000      2.24000
44.800      70.000      2.32000
44.850      76.000      2.52000
44.900      85.000      2.66000
44.950      99.000      2.87000
45.000     116.000      3.11000
45.050     139.000      3.55000
45.100     173.000      3.80000
45.150     210.000      4.37000
45.200     260.000      4.86000
45.250     310.000      5.31000
45.300     377.000      5.61000
45.350     465.000      5.98000
45.400     531.000      6.65000
45.450     612.000      6.86000
45.500     632.000      7.26000
45.550     639.000      7.30000
45.600     648.000      7.06000
45.650     595.000      6.77000
45.700     533.000      6.66000
45.750     440.000      6.32000
45.800     357.000      5.70000
45.850     293.000      5.41000
45.900     249.000      4.56000
45.950     212.000      4.20000
46.000     195.000      4.03000
46.050     197.000      4.23000
46.100     206.000      4.14000
46.150     237.000      4.64000
46.200     290.000      4.92000
46.250     351.000      5.41000
46.300     407.000      6.08000
46.350     459.000      7.14000
46.400     500.000      7.07000
46.450     498.000      7.44000
46.500     468.000      6.52000
46.550     434.000      6.28000
46.600     378.000      5.86000
46.650     306.000      5.27000
46.700     260.000      4.65000
46.750     205.000      4.13000
46.800     153.000      3.73000
46.850     118.000      3.14000
46.900      99.000      2.76000
46.950      87.000      2.59000
47.000      81.000      2.50000
47.050      78.000      2.45000
47.100      81.000      2.50000
47.150      85.000      2.56000
47.200      97.000      2.73000
47.250     116.000      2.99000
47.300     127.000      3.40000
47.350     151.000      3.55000
47.400     177.000      3.84000
47.450     205.000      4.13000
47.500     243.000      4.50000
47.550     288.000      4.71000
47.600     319.000      5.39000
47.650     356.000      5.97000
47.700     388.000      6.23000
47.750     420.000      5.68000
47.800     398.000      5.76000
47.850     380.000      5.41000
47.900     338.000      5.54000
47.950     283.000      5.07000
48.000     227.000      7.53000
48.050     189.000      4.35000
48.100     163.000      3.69000
48.150     147.000      3.24000
48.200     135.000      3.11000
48.250     132.000      3.07000
48.300     138.000      3.14000
48.350     149.000      3.26000
48.400     157.000      3.35000
48.450     169.000      3.47000
48.500     177.000      3.56000
48.550     179.000      3.58000
48.600     175.000      3.54000
48.650     166.000      3.44000
48.700     144.000      3.33000
48.750     129.000      3.04000
48.800     109.000      2.79000
48.850      94.000      2.59000
48.900      83.000      2.43000
48.950      77.000      2.35000
49.000      74.000      2.30000
49.050      80.000      2.39000
49.100      80.000      2.39000
49.150      80.000      2.39000
49.200      86.000      2.48000
49.250      98.000      2.65000
49.300     109.000      2.79000
49.350     121.000      3.05000
49.400     140.000      3.16000
49.450     154.000      3.32000
49.500     160.000      3.38000
49.550     171.000      3.49000
49.600     169.000      3.47000
49.650     162.000      3.40000
49.700     151.000      3.41000
49.750     145.000      3.22000
49.800     131.000      3.06000
49.850     117.000      2.89000
49.900     105.000      2.74000
49.950      96.000      2.62000
50.000      87.000      2.49000
50.050      77.000      2.35000
50.100      74.000      2.30000
50.150      73.000      2.28000
50.200      65.000      2.15000
50.250      62.000      2.10000
50.300      61.000      2.09000
50.350      59.000      2.05000
50.400      58.000      2.04000
50.450      60.000      2.07000
50.500      62.000      2.10000
50.550      59.000      2.05000
50.600      56.000      2.00000
50.650      63.000      2.12000
50.700      67.000      2.19000
50.750      67.000      2.19000
50.800      70.000      2.24000
50.850      78.000      2.36000
50.900      84.000      2.45000
50.950      88.000      2.60000
51.000     102.000      2.70000
51.050     115.000      2.97000
51.100     130.000      3.16000
51.150     146.000      3.64000
51.200     171.000      3.63000
51.250     185.000      3.77000
51.300     192.000      4.00000
51.350     190.000      3.98000
51.400     183.000      3.91000
51.450     172.000      3.79000
51.500     154.000      3.58000
51.550     125.000      3.23000
51.600     107.000      2.99000
51.650      97.000      2.63000
51.700      82.000      2.42000
51.750      71.000      2.25000
51.800      65.000      2.15000
51.850      64.000      2.14000
51.900      62.000      2.10000
51.950      61.000      2.09000
52.000      58.000      2.04000
52.050      59.000      2.05000
52.100      57.000      2.02000
52.150      56.000      2.00000
52.200      58.000      2.04000
52.250      59.000      2.05000
52.300      58.000      2.04000
52.350      59.000      2.05000
52.400      61.000      2.09000
52.450      60.000      2.07000
52.500      58.000      2.04000
52.550      59.000      2.05000
52.600      59.000      2.05000
52.650      60.000      2.07000
52.700      58.000      2.04000
52.750      59.000      2.05000
52.800      61.000      2.09000
52.850      59.000      2.05000
52.900      59.000      2.05000
52.950      63.000      2.12000
53.000      64.000      2.14000
53.050      64.000      2.14000
53.100      62.000      2.10000
53.150      65.000      2.15000
53.200      64.000      2.14000
53.250      68.000      2.20000
53.300      69.000      2.22000
53.350      73.000      2.28000
53.400      74.000      2.30000
53.450      79.000      2.38000
53.500      90.000      2.54000
53.550      98.000      2.65000
53.600     106.000      2.75000
53.650     115.000      2.87000
53.700     121.000      2.94000
53.750     119.000      2.92000
53.800     116.000      2.88000
53.850     110.000      2.80000
53.900      98.000      2.86000
53.950      91.000      2.75000
54.000      83.000      3.72000
54.050      75.000      2.61000
54.100      78.000      2.45000
54.150      73.000      2.21000
54.200      78.000      2.28000
54.250      80.000      2.39000
54.300      86.000      2.39000
54.350      98.000      2.56000
54.400     107.000      2.67000
54.450     119.000      2.82000
54.500     129.000      3.04000
54.550     135.000      3.11000
54.600     133.000      3.20000
54.650     132.000      3.07000
54.700     124.000      2.88000
54.750     111.000      2.82000
54.800     101.000      2.69000
54.850      93.000      2.49000
54.900      83.000      2.35000
54.950      77.000      2.27000
55.000      70.000      2.16000
55.050      68.000      2.13000
55.100      64.000      2.14000
55.150      61.000      2.02000
55.200      61.000      2.02000
55.250      63.000      2.05000
55.300      63.000      2.05000
55.350      63.000      2.05000
55.400      59.000      1.98000
55.450      59.000      1.98000
55.500      58.000      1.97000
55.550      58.000      1.97000
55.600      59.000      1.98000
55.650      63.000      2.05000
55.700      61.000      2.02000
55.750      61.000      2.02000
55.800      62.000      2.03000
55.850      64.000      2.07000
55.900      71.000      2.18000
55.950      72.000      2.19000
56.000      75.000      2.24000
56.050      86.000      2.39000
56.100      91.000      2.46000
56.150     102.000      2.61000
56.200     116.000      2.78000
56.250     131.000      2.96000
56.300     142.000      3.08000
56.350     155.000      3.21000
56.400     166.000      3.33000
56.450     174.000      3.41000
56.500     181.000      3.47000
56.550     176.000      3.43000
56.600     162.000      3.40000
56.650     149.000      3.15000
56.700     138.000      3.26000
56.750     138.000      3.26000
56.800     134.000      3.21000
56.850     140.000      3.28000
56.900     151.000      3.41000
56.950     156.000      3.61000
57.000     159.000      3.50000
57.050     165.000      3.56000
57.100     160.000      3.51000
57.150     150.000      3.27000
57.200     135.000      3.00000
57.250     121.000      2.94000
57.300     114.000      2.76000
57.350     101.000      2.59000
57.400      95.000      2.60000
57.450      99.000      2.57000
57.500     107.000      2.67000
57.550     127.000      2.91000
57.600     144.000      3.21000
57.650     164.000      3.86000
57.700     206.000      3.84000
57.750     238.000      4.45000
57.800     276.000      5.01000
57.850     342.000      4.94000
57.900     401.000      5.35000
57.950     444.000      5.84000
58.000     479.000      5.85000
58.050     472.000      6.03000
58.100     442.000      5.83000
58.150     372.000      5.82000
58.200     306.000      5.53000
58.250     249.000      4.56000
58.300     191.000      3.83000
58.350     141.000      3.58000
58.400     121.000      3.05000
58.450     103.000      2.62000
58.500      85.000      2.38000
58.550      75.000      2.24000
58.600      70.000      2.16000
58.650      71.000      2.18000
58.700      70.000      2.16000
58.750      75.000      2.24000
58.800      77.000      2.27000
58.850      85.000      2.38000
58.900      92.000      2.48000
58.950     100.000      2.58000
59.000     107.000      2.67000
59.050     110.000      2.80000
59.100     117.000      2.79000
59.150     117.000      2.79000
59.200     115.000      2.77000
59.250     116.000      2.78000
59.300     124.000      2.88000
59.350     133.000      2.98000
59.400     137.000      3.13000
59.450     156.000      3.34000
59.500     174.000      3.53000
59.550     197.000      3.89000
59.600     226.000      4.02000
59.650     263.000      4.33000
59.700     301.000      4.81000
59.750     338.000      5.31000
59.800     400.000      5.77000
59.850     465.000      6.50000
59.900     542.000      7.36000
59.950     653.000      9.03000
60.000     636.000     12.61000
60.050     664.000     11.52000
60.100     611.000     14.27000
60.150     617.000      9.39000
60.200     563.000      8.39000
60.250     489.000      7.82000
60.300     438.000      6.98000
60.350     413.000      5.64000
60.400     380.000      5.21000
60.450     364.000      5.10000
60.500     373.000      5.16000
60.550     369.000      5.13000
60.600     370.000      5.33000
60.650     364.000      5.10000
60.700     348.000      5.17000
60.750     303.000      5.50000
60.800     270.000      4.95000
60.850     247.000      4.74000
60.900     228.000      4.55000
60.950     222.000      4.49000
61.000     227.000      4.54000
61.050     231.000      4.81000
61.100     252.000      4.79000
61.150     259.000      4.85000
61.200     277.000      4.80000
61.250     273.000      4.42000
61.300     252.000      4.24000
61.350     214.000      3.91000
61.400     176.000      3.55000
61.450     149.000      3.26000
61.500     117.000      2.89000
61.550     102.000      2.70000
61.600      90.000      2.54000
61.650      74.000      2.30000
61.700      69.000      2.22000
61.750      67.000      2.19000
61.800      63.000      2.12000
61.850      65.000      2.15000
61.900      61.000      2.09000
61.950      63.000      2.12000
62.000      65.000      2.15000
62.050      66.000      2.17000
62.100      63.000      2.12000
62.150      68.000      2.20000
62.200      65.000      2.15000
62.250      65.000      2.15000
62.300      58.000      2.04000
62.350      61.000      2.09000
62.400      58.000      2.04000
62.450      60.000      2.07000
62.500      59.000      2.05000
62.550      55.000      1.98000
62.600      58.000      2.04000
62.650      61.000      2.09000
62.700      59.000      2.05000
62.750      59.000      2.05000
62.800      56.000      2.00000
62.850      58.000      2.04000
62.900      59.000      2.05000
62.950      59.000      2.05000
63.000      60.000      2.07000
63.050      61.000      2.09000
63.100      61.000      2.09000
63.150      63.000      2.12000
63.200      60.000      2.07000
63.250      62.000      2.10000
63.300      61.000      2.09000
63.350      62.000      2.10000
63.400      59.000      2.05000
63.450      56.000      2.00000
63.500      60.000      2.07000
63.550      65.000      2.15000
63.600      67.000      2.19000
63.650      66.000      2.17000
63.700      65.000      2.15000
63.750      74.000      2.30000
63.800      72.000      2.27000
63.850      72.000      2.27000
63.900      76.000      2.33000
63.950      79.000      2.47000
64.000      82.000      2.51000
64.050      92.000      2.77000
64.100     103.000      2.93000
64.150     128.000      3.27000
64.200     152.000      3.90000
64.250     199.000      4.46000
64.300     246.000      5.55000
64.350     305.000      7.13000
64.400     377.000      7.93000
64.450     491.000      7.39000
64.500     535.000      8.18000
64.550     588.000      6.73000
64.600     562.000      6.84000
64.650     473.000      7.25000
64.700     385.000      7.42000
64.750     325.000      6.01000
64.800     279.000      4.82000
64.850     234.000      4.24000
64.900     215.000      3.92000
64.950     211.000      4.03000
65.000     244.000      4.17000
65.050     279.000      4.46000
65.100     321.000      5.17000
65.150     360.000      5.26000
65.200     389.000      5.27000
65.250     387.000      5.26000
65.300     381.000      5.22000
65.350     338.000      4.91000
65.400     271.000      4.96000
65.450     247.000      4.36000
65.500     206.000      3.84000
65.550     173.000      3.52000
65.600     158.000      3.36000
65.650     149.000      3.26000
65.700     146.000      3.23000
65.750     135.000      3.11000
65.800     127.000      3.01000
65.850     118.000      2.90000
65.900     111.000      3.04000
65.950      98.000      3.13000
66.000      89.000      4.22000
66.050      80.000      2.83000
66.100      73.000      2.58000
66.150      75.000      2.40000
66.200      80.000      2.48000
66.250      83.000      2.53000
66.300      97.000      2.73000
66.350     110.000      2.91000
66.400     127.000      3.25000
66.450     145.000      3.48000
66.500     184.000      3.76000
66.550     198.000      4.24000
66.600     233.000      4.23000
66.650     257.000      4.45000
66.700     265.000      4.51000
66.750     304.000      4.84000
66.800     344.000      5.35000
66.850     374.000      6.84000
66.900     363.000     11.00000
66.950     482.000     10.98000
67.000     598.000      9.98000
67.050     709.000      8.88000
67.100     748.000      8.65000
67.150     730.000      8.54000
67.200     723.000      7.46000
67.250     666.000      7.45000
67.300     644.000      7.04000
67.350     609.000      7.12000
67.400     553.000      6.79000
67.450     509.000      6.51000
67.500     425.000      6.52000
67.550     352.000      5.66000
67.600     288.000      5.12000
67.650     240.000      4.67000
67.700     219.000      4.27000
67.750     206.000      3.98000
67.800     208.000      4.00000
67.850     205.000      4.13000
67.900     193.000      4.01000
67.950     187.000      3.95000
68.000     167.000      3.90000
68.050     138.000      3.54000
68.100     116.000      3.25000
68.150     103.000      3.06000
68.200      91.000      2.88000
68.250      75.000      2.61000
68.300      74.000      2.59000
68.350      79.000      2.47000
68.400      91.000      2.65000
68.450      97.000      2.73000
68.500     113.000      3.07000
68.550     138.000      3.39000
68.600     171.000      3.77000
68.650     221.000      4.12000
68.700     259.000      4.65000
68.750     318.000      4.95000
68.800     347.000      5.62000
68.850     367.000      6.06000
68.900     405.000      6.36000
68.950     425.000      6.22000
69.000     401.000      6.04000
69.050     377.000      5.85000
69.100     327.000      5.45000
69.150     264.000      5.14000
69.200     216.000      4.24000
69.250     167.000      3.73000
69.300     134.000      3.21000
69.350     110.000      2.91000
69.400     102.000      2.80000
69.450     102.000      2.80000
69.500     110.000      2.91000
69.550     120.000      3.16000
69.600     140.000      3.42000
69.650     170.000      3.76000
69.700     212.000      4.20000
69.750     235.000      4.62000
69.800     260.000      4.86000
69.850     266.000      4.92000
69.900     277.000      4.62000
69.950     269.000      4.55000
70.000     256.000      4.44000
70.050     229.000      4.20000
70.100     216.000      4.08000
70.150     194.000      3.86000
70.200     173.000      3.65000
70.250     148.000      3.37000
70.300     131.000      3.17000
70.350     114.000      2.96000
70.400      90.000      2.63000
70.450      84.000      2.54000
70.500      76.000      2.42000
70.550      66.000      2.25000
70.600      66.000      2.25000
70.650      68.000      2.29000
70.700      62.000      2.18000
70.750      64.000      2.22000
70.800      64.000      2.22000
70.850      62.000      2.18000
70.900      70.000      2.32000
70.950      76.000      2.42000
71.000      83.000      2.63000
71.050      95.000      2.70000
71.100     108.000      2.88000
71.150     126.000      3.11000
71.200     141.000      3.29000
71.250     149.000      3.39000
71.300     149.000      3.39000
71.350     145.000      3.34000
71.400     144.000      3.33000
71.450     132.000      3.32000
71.500     131.000      3.17000
71.550     130.000      3.16000
71.600     142.000      3.31000
71.650     150.000      3.40000
71.700     160.000      3.65000
71.750     185.000      3.77000
71.800     213.000      4.05000
71.850     234.000      4.24000
71.900     245.000      4.72000
71.950     261.000      5.39000
72.000     257.000      7.17000
72.050     239.000      4.89000
72.100     212.000      4.39000
72.150     174.000      3.81000
72.200     147.000      3.50000
72.250     114.000      3.08000
72.300      92.000      2.77000
72.350      82.000      2.61000
72.400      74.000      2.48000
72.450      72.000      2.45000
72.500      68.000      2.38000
72.550      66.000      2.35000
72.600      68.000      2.49000
72.650      74.000      2.59000
72.700      83.000      2.75000
72.750      97.000      2.97000
72.800     112.000      3.19000
72.850     140.000      3.42000
72.900     168.000      4.10000
72.950     205.000      4.32000
73.000     239.000      4.46000
73.050     247.000      4.54000
73.100     238.000      4.65000
73.150     225.000      4.52000
73.200     202.000      4.10000
73.250     171.000      3.94000
73.300     150.000      3.54000
73.350     139.000      3.40000
73.400     129.000      3.28000
73.450     115.000      3.10000
73.500     116.000      3.11000
73.550     122.000      3.19000
73.600     133.000      3.33000
73.650     147.000      3.50000
73.700     156.000      3.61000
73.750     174.000      3.81000
73.800     191.000      3.99000
73.850     202.000      4.10000
73.900     214.000      4.22000
73.950     217.000      4.25000
74.000     223.000      4.50000
74.050     214.000      4.41000
74.100     201.000      4.09000
74.150     168.000      3.91000
74.200     154.000      3.58000
74.250     131.000      3.30000
74.300     116.000      3.11000
74.350     105.000      2.96000
74.400     104.000      2.94000
74.450     103.000      2.93000
74.500     117.000      3.12000
74.550     135.000      3.35000
74.600     145.000      3.48000
74.650     163.000      3.85000
74.700     172.000      3.95000
74.750     190.000      4.16000
74.800     195.000      4.21000
74.850     196.000      4.04000
74.900     185.000      3.93000
74.950     179.000      3.86000
75.000     172.000      3.79000
75.050     165.000      3.71000
75.100     155.000      3.59000
75.150     153.000      3.57000
75.200     137.000      3.38000
75.250     126.000      3.24000
75.300     111.000      3.04000
75.350     105.000      2.96000
75.400      95.000      2.81000
75.450      85.000      2.66000
75.500      80.000      2.58000
75.550      74.000      2.48000
75.600      76.000      2.52000
75.650      82.000      2.61000
75.700      86.000      2.80000
75.750      94.000      2.92000
75.800     123.000      3.34000
75.850     155.000      3.94000
75.900     201.000      4.48000
75.950     239.000      5.84000
76.000     348.000      5.90000
76.050     405.000      6.36000
76.100     441.000      7.00000
76.150     449.000      6.70000
76.200     428.000      5.97000
76.250     345.000      5.87000
76.300     294.000      5.17000
76.350     234.000      5.10000
76.400     201.000      4.09000
76.450     173.000      3.97000
76.500     164.000      3.70000
76.550     171.000      3.94000
76.600     193.000      4.19000
76.650     236.000      4.43000
76.700     249.000      4.99000
76.750     274.000      4.99000
76.800     261.000      5.11000
76.850     239.000      4.89000
76.900     206.000      4.54000
76.950     169.000      4.11000
77.000     135.000      3.67000
77.050     112.000      3.06000
77.100      98.000      2.86000
77.150      84.000      2.65000
77.200      81.000      2.60000
77.250      78.000      2.66000
77.300      74.000      2.72000
77.350      85.000      2.92000
77.400      92.000      3.03000
77.450     107.000      3.27000
77.500     122.000      3.49000
77.550     131.000      3.82000
77.600     148.000      4.06000
77.650     146.000      4.03000
77.700     149.000      3.86000
77.750     127.000      3.76000
77.800     113.000      3.21000
77.850     108.000      3.00000
77.900     108.000      3.13000
77.950     122.000      3.91000
78.000     133.000      5.77000
78.050     155.000      5.08000
78.100     182.000      5.51000
78.150     231.000      5.07000
78.200     264.000      4.90000
78.250     278.000      5.27000
78.300     252.000      5.02000
78.350     213.000      4.86000
78.400     164.000      4.53000
78.450     144.000      3.79000
78.500     109.000      3.15000
78.550      92.000      2.89000
78.600      80.000      2.70000
78.650      74.000      2.59000
78.700      72.000      2.68000
78.750      77.000      2.65000
78.800      78.000      2.66000
78.850      77.000      2.65000
78.900      84.000      2.76000
78.950      90.000      2.86000
79.000      94.000      2.92000
79.050      93.000      2.91000
79.100      86.000      2.80000
79.150      84.000      2.76000
79.200      79.000      2.68000
79.250      72.000      2.56000
79.300      68.000      2.49000
79.350      62.000      2.37000
79.400      62.000      2.37000
79.450      61.000      2.35000
79.500      61.000      2.35000
79.550      64.000      2.41000
79.600      61.000      2.35000
79.650      62.000      2.37000
79.700      61.000      2.35000
79.750      63.000      2.39000
79.800      62.000      2.37000
79.850      62.000      2.37000
79.900      60.000      2.34000
79.950      62.000      2.37000
80.000      68.000      2.49000
80.050      79.000      2.68000
80.100      82.000      2.73000
80.150      96.000      2.95000
80.200     108.000      3.13000
80.250     121.000      3.32000
80.300     124.000      3.52000
80.350     126.000      3.38000
80.400     121.000      3.32000
80.450     109.000      3.15000
80.500     101.000      3.03000
80.550      90.000      2.86000
80.600      78.000      2.66000
80.650      74.000      2.59000
80.700      70.000      2.52000
80.750      70.000      2.52000
80.800      75.000      2.74000
80.850      88.000      2.83000
80.900      93.000      3.21000
80.950     127.000      3.76000
81.000     164.000      4.53000
81.050     220.000      5.61000
81.100     278.000      7.46000
81.150     372.000      7.87000
81.200     398.000      9.97000
81.250     509.000     11.28000
81.300     644.000      9.59000
81.350     687.000      9.27000
81.400     675.000      8.66000
81.450     632.000      7.95000
81.500     504.000      7.48000
81.550     381.000      6.90000
81.600     308.000      5.85000
81.650     232.000      4.59000
81.700     176.000      4.00000
81.750     130.000      3.61000
81.800     113.000      3.21000
81.850      97.000      2.97000
81.900      87.000      2.81000
81.950      83.000      2.75000
82.000      79.000      2.68000
82.050      73.000      2.58000
82.100      75.000      2.61000
82.150      76.000      2.63000
82.200      80.000      2.83000
82.250      95.000      2.94000
82.300     110.000      3.32000
82.350     128.000      4.00000
82.400     169.000      4.33000
82.450     216.000      5.20000
82.500     295.000      5.73000
82.550     369.000      6.40000
82.600     416.000      8.33000
82.650     507.000      7.96000
82.700     560.000      7.48000
82.750     527.000      8.12000
82.800     448.000      8.00000
82.850     394.000      6.28000
82.900     310.000      5.87000
82.950     259.000      5.09000
83.000     228.000      4.55000
83.050     226.000      4.53000
83.100     246.000      4.96000
83.150     282.000      5.31000
83.200     315.000      5.61000
83.250     360.000      5.72000
83.300     364.000      6.36000
83.350     391.000      6.25000
83.400     391.000      6.25000
83.450     398.000      6.02000
83.500     372.000      6.10000
83.550     359.000      6.32000
83.600     352.000      5.93000
83.650     344.000      6.56000
83.700     347.000      5.89000
83.750     334.000      5.78000
83.800     295.000      5.73000
83.850     229.000      5.72000
83.900     205.000      4.77000
83.950     158.000      4.75000
84.000     120.000      6.32000
84.050     108.000      3.67000
84.100      93.000      3.21000
84.150      88.000      2.97000
84.200      88.000      2.97000
84.250      83.000      2.88000
84.300      79.000      2.81000
84.350      80.000      2.83000
84.400      72.000      2.68000
84.450      68.000      2.61000
84.500      69.000      2.63000
84.550      69.000      2.63000
84.600      70.000      2.65000
84.650      72.000      2.68000
84.700      72.000      2.68000
84.750      71.000      2.66000
84.800      68.000      2.61000
84.850      71.000      2.66000
84.900      75.000      2.74000
84.950      75.000      2.74000
85.000      73.000      2.70000
85.050      74.000      2.72000
85.100      73.000      2.70000
85.150      73.000      2.70000
85.200      74.000      2.72000
85.250      78.000      2.79000
85.300      88.000      2.97000
85.350      89.000      2.98000
85.400      88.000      2.97000
85.450      96.000      3.27000
85.500     103.000      3.38000
85.550     121.000      3.48000
85.600     155.000      3.94000
85.650     197.000      4.44000
85.700     218.000      6.03000
85.750     250.000      6.45000
85.800     258.000      7.18000
85.850     279.000      6.82000
85.900     287.000      5.99000
85.950     255.000      5.65000
86.000     212.000      5.15000
86.050     169.000      4.60000
86.100     134.000      4.09000
86.150     113.000      3.76000
86.200     111.000      3.33000
86.250     105.000      3.24000
86.300     112.000      3.35000
86.350     124.000      3.52000
86.400     139.000      3.73000
86.450     151.000      4.10000
86.500     171.000      4.36000
86.550     195.000      4.65000
86.600     220.000      4.69000
86.650     233.000      5.40000
86.700     271.000      5.82000
86.750     322.000      6.78000
86.800     375.000      6.85000
86.850     415.000      6.79000
86.900     399.000      7.55000
86.950     365.000      6.75000
87.000     301.000      6.56000
87.050     239.000      5.47000
87.100     197.000      4.44000
87.150     149.000      3.86000
87.200     124.000      3.71000
87.250     115.000      3.39000
87.300     114.000      3.38000
87.350     119.000      3.45000
87.400     123.000      3.51000
87.450     130.000      3.61000
87.500     130.000      3.61000
87.550     131.000      3.62000
87.600     122.000      3.49000
87.650     115.000      3.39000
87.700     116.000      3.41000
87.750     121.000      3.48000
87.800     123.000      3.51000
87.850     123.000      3.51000
87.900     127.000      3.56000
87.950     122.000      3.49000
88.000     118.000      3.44000
88.050     107.000      3.27000
88.100     106.000      3.26000
88.150     101.000      3.18000
88.200     102.000      3.19000
88.250     102.000      3.19000
88.300     107.000      3.45000
88.350     115.000      3.57000
88.400     141.000      3.96000
88.450     184.000      4.80000
88.500     251.000      5.60000
88.550     330.000      6.87000
88.600     415.000      7.70000
88.650     483.000      7.77000
88.700     523.000      8.09000
88.750     516.000      8.03000
88.800     438.000      7.91000
88.850     346.000      6.58000
88.900     266.000      5.44000
88.950     201.000      5.36000
89.000     166.000      4.29000
89.050     141.000      3.96000
89.100     141.000      3.96000
89.150     142.000      4.21000
89.200     148.000      4.06000
89.250     166.000      4.07000
89.300     156.000      3.95000
89.350     158.000      3.97000
89.400     148.000      3.85000
89.450     122.000      3.49000
89.500     106.000      3.26000
89.550      94.000      3.07000
89.600      85.000      2.92000
89.650      79.000      2.81000
89.700      77.000      2.77000
89.750      80.000      2.83000
89.800      87.000      2.95000
89.850      96.000      3.10000
89.900     107.000      3.45000
89.950     131.000      4.05000
90.000     137.000      6.76000
90.050     153.000      4.37000
90.100     160.000      4.22000
90.150     175.000      4.18000
90.200     179.000      4.23000
90.250     197.000      4.44000
90.300     225.000      4.74000
90.350     259.000      5.36000
90.400     296.000      6.50000
90.450     348.000      6.60000
90.500     338.000      8.22000
90.550     367.000      7.24000
90.600     395.000      6.28000
90.650     368.000      6.07000
90.700     279.000      7.47000
90.750     263.000      5.13000
90.800     215.000      4.64000
90.850     166.000      4.07000
90.900     136.000      3.89000
90.950     111.000      3.33000
91.000      95.000      3.08000
91.050      81.000      2.85000
91.100      71.000      2.66000
91.150      70.000      2.65000
91.200      65.000      2.55000
91.250      64.000      2.53000
91.300      64.000      2.53000
91.350      65.000      2.55000
91.400      62.000      2.49000
91.450      66.000      2.57000
91.500      62.000      2.49000
91.550      65.000      2.55000
91.600      61.000      2.47000
91.650      62.000      2.49000
91.700      64.000      2.53000
91.750      62.000      2.49000
91.800      61.000      2.47000
91.850      60.000      2.45000
91.900      67.000      2.59000
91.950      68.000      2.61000
92.000      68.000      2.61000
92.050      74.000      2.72000
92.100      84.000      2.90000
92.150      95.000      3.08000
92.200     111.000      3.33000
92.250     131.000      3.82000
92.300     163.000      4.04000
92.350     195.000      4.65000
92.400     222.000      4.97000
92.450     233.000      5.09000
92.500     238.000      5.14000
92.550     235.000      5.11000
92.600     239.000      5.15000
92.650     249.000      5.26000
92.700     256.000      5.66000
92.750     268.000      6.19000
92.800     288.000      6.41000
92.850     291.000      6.03000
92.900     265.000      5.76000
92.950     230.000      5.36000
93.000     192.000      4.90000
93.050     158.000      4.19000
93.100     145.000      4.01000
93.150     145.000      4.01000
93.200     164.000      4.27000
93.250     193.000      4.91000
93.300     207.000      5.87000
93.350     271.000      5.49000
93.400     299.000      5.76000
93.450     345.000      6.19000
93.500     408.000      6.73000
93.550     460.000      7.15000
93.600     487.000      7.80000
93.650     468.000      8.83000
93.700     451.000      8.67000
93.750     416.000      6.80000
93.800     320.000      6.32000
93.850     241.000      5.49000
93.900     188.000      4.57000
93.950     142.000      3.97000
94.000     115.000      3.39000
94.050      99.000      3.15000
94.100      96.000      3.27000
94.150     104.000      3.40000
94.200     129.000      3.79000
94.250     170.000      4.61000
94.300     230.000      6.19000
94.350     316.000      6.28000
94.400     411.000      6.76000
94.450     467.000      6.83000
94.500     441.000      7.42000
94.550     406.000      6.72000
94.600     342.000      6.16000
94.650     290.000      5.68000
94.700     268.000      5.46000
94.750     269.000      5.19000
94.800     285.000      5.63000
94.850     333.000      6.45000
94.900     398.000      6.31000
94.950     429.000      6.55000
95.000     424.000      6.51000
95.050     380.000      6.50000
95.100     293.000      6.47000
95.150     237.000      5.44000
95.200     186.000      4.82000
95.250     160.000      4.00000
95.300     146.000      3.82000
95.350     155.000      4.15000
95.400     191.000      4.89000
95.450     247.000      6.42000
95.500     349.000      7.63000
95.550     459.000      9.58000
95.600     476.000     15.43000
95.650     665.000     11.53000
95.700     694.000      9.96000
95.750     668.000      9.14000
95.800     588.000      7.67000
95.850     445.000      7.46000
95.900     353.000      7.10000
95.950     272.000      5.83000
96.000     214.000     10.34000
96.050     198.000      4.97000
96.100     168.000      4.32000
96.150     162.000      4.02000
96.200     174.000      4.17000
96.250     188.000      4.34000
96.300     166.000      4.56000
96.350     161.000      4.01000
96.400     151.000      3.89000
96.450     128.000      3.77000
96.500     115.000      3.39000
96.550     109.000      3.30000
96.600     105.000      3.24000
96.650     107.000      3.27000
96.700     105.000      3.24000
96.750      98.000      3.13000
96.800      95.000      3.08000
96.850      84.000      2.90000
96.900      76.000      2.76000
96.950      73.000      2.70000
97.000      73.000      2.70000
97.050      72.000      2.68000
97.100      67.000      2.59000
97.150      67.000      2.59000
97.200      75.000      2.74000
97.250      88.000      2.97000
97.300      95.000      3.08000
97.350     109.000      3.30000
97.400     115.000      3.39000
97.450     121.000      3.48000
97.500     129.000      3.59000
97.550     128.000      4.00000
97.600     147.000      4.29000
97.650     166.000      4.56000
97.700     173.000      4.65000
97.750     198.000      4.69000
97.800     210.000      5.12000
97.850     210.000      5.12000
97.900     217.000      4.91000
97.950     202.000      5.02000
98.000     190.000      4.59000
98.050     168.000      4.32000
98.100     147.000      4.04000
98.150     135.000      3.87000
98.200     126.000      3.74000
98.250     133.000      3.65000
98.300     133.000      3.84000
98.350     141.000      3.75000
98.400     148.000      3.85000
98.450     154.000      3.92000
98.500     162.000      4.24000
98.550     172.000      4.15000
98.600     196.000      4.43000
98.650     210.000      4.58000
98.700     197.000      4.68000
98.750     194.000      4.64000
98.800     174.000      4.40000
98.850     148.000      3.85000
98.900     131.000      3.62000
98.950     106.000      3.26000
99.000      94.000      3.07000
99.050      87.000      2.95000
99.100      85.000      2.92000
99.150      86.000      2.93000
99.200      91.000      3.02000
99.250      99.000      3.15000
99.300     106.000      3.26000
99.350     121.000      3.48000
99.400     130.000      3.61000
99.450     124.000      3.94000
99.500     138.000      3.92000
99.550     136.000      4.12000
99.600     140.000      3.74000
99.650     113.000      3.76000
99.700     107.000      3.27000
99.750      94.000      3.07000
99.800      79.000      2.81000
99.850      70.000      2.65000
99.900      68.000      2.61000
99.950      62.000      2.49000
******      64.000      2.53000
******      63.000      2.51000
******      65.000      2.55000
******      66.000      2.57000
******      67.000      2.59000
******      67.000      2.59000
******      68.000      2.61000
******      75.000      2.74000
******      79.000      2.81000
******      88.000      2.97000
******      97.000      3.11000
******     105.000      3.24000
******     114.000      3.38000
******     123.000      3.51000
******     134.000      3.66000
******     136.000      3.69000
******     130.000      3.61000
******     118.000      3.44000
******     113.000      3.36000
******     106.000      3.26000
******      98.000      3.30000
******     111.000      3.51000
******     141.000      4.20000
******     205.000      5.06000
******     262.000      8.09000
******     378.000      9.72000
******     557.000      9.64000
******     666.000     10.54000
******     743.000      9.64000
******     726.000      9.53000
******     541.000     11.63000
******     373.000     11.15000
******     276.000      8.31000
******     232.000      5.39000
******     162.000      4.81000
******     128.000      3.58000
******     104.000      3.22000
******      91.000      3.02000
******      87.000      3.11000
******      83.000      3.22000
******      83.000      5.26000
******      84.000      3.46000
******      83.000      3.22000
******      80.000      2.98000
******      74.000      2.87000
******      66.000      2.71000
******      67.000      2.73000
******      73.000      2.85000
******      76.000      2.91000
******      82.000      3.02000
******      92.000      3.39000
******     112.000      3.74000
******     147.000      4.29000
******     185.000      4.81000
******     245.000      5.53000
******     284.000      6.88000
******     306.000      7.82000
******     325.000      8.06000
******     314.000      7.23000
******     261.000      6.60000
******     196.000      5.72000
******     163.000      4.83000
******     135.000      4.11000
******     104.000      3.40000
******      90.000      3.16000
******      81.000      3.00000
******      82.000      3.02000
******      90.000      3.16000
******     105.000      3.62000
******     141.000      4.49000
******     188.000      5.60000
******     242.000      5.88000
******     309.000      6.64000
******     334.000      7.46000
******     361.000      6.72000
******     345.000      6.19000
******     285.000      5.97000
******     240.000      5.48000
******     201.000      4.73000
******     168.000      4.32000
******     142.000      3.97000
******     129.000      3.79000
******     125.000      3.73000
******     119.000      3.64000
******     114.000      3.56000
******     114.000      3.56000
******     115.000      3.57000
******     118.000      3.62000
******     123.000      3.70000
******     131.000      4.05000
******     150.000      4.63000
******     180.000      5.48000
******     245.000      5.92000
******     258.000      7.18000
******     301.000      7.76000
******     335.000      6.92000
******     285.000      6.89000
******     254.000      5.63000
******     204.000      5.05000
******     154.000      4.69000
******     124.000      3.94000
******     111.000      3.51000
******      96.000      3.27000
******      97.000      3.28000
******      98.000      3.30000
******     102.000      3.37000
******     105.000      3.42000
******     109.000      3.48000
******      98.000      3.30000
******      85.000      3.07000
******      80.000      2.98000
******      75.000      2.89000
******      66.000      2.71000
******      65.000      2.69000
******      67.000      2.73000
******      74.000      2.87000
******      71.000      2.81000
******      71.000      2.81000
******      74.000      2.87000
******      78.000      2.94000
******      77.000      2.92000
******      82.000      3.02000
******      95.000      3.25000
******     115.000      3.57000
******     132.000      3.83000
******     152.000      4.11000
******     172.000      4.37000
******     178.000      4.45000
******     175.000      4.68000
******     153.000      4.37000
******     136.000      3.89000
******     111.000      3.51000
******      92.000      3.20000
******      78.000      2.94000
******      75.000      2.89000
******      69.000      2.77000
******      72.000      2.83000
******      66.000      2.71000
******      67.000      2.73000
******      64.000      2.67000
******      67.000      2.73000
******      67.000      2.73000
******      72.000      2.83000
******      70.000      2.79000
******      79.000      2.96000
******      76.000      2.91000
******      79.000      2.96000
******      85.000      3.07000
******      83.000      3.04000
******      83.000      3.04000
******      78.000      2.94000
******      78.000      2.94000
******      77.000      2.92000
******      77.000      3.10000
******      83.000      3.22000
******     101.000      3.55000
******     116.000      3.81000
******     136.000      4.12000
******     157.000      4.43000
******     169.000      4.91000
******     149.000      7.05000
******     186.000      5.57000
******     184.000      5.13000
******     172.000      4.64000
******     166.000      4.56000
******     162.000      4.50000
******     164.000      4.84000
******     184.000      4.80000
******     227.000      5.69000
******     293.000      6.47000
******     386.000      8.02000
******     451.000     12.26000
******     625.000     12.50000
******     742.000     13.62000
******     906.000     12.29000
******     911.000     15.09000
******     954.000     13.81000
******     941.000     12.52000
******     863.000     11.99000
******     721.000     10.15000
******     545.000      9.53000
******     394.000      8.10000
******     274.000      7.40000
******     197.000      6.28000
******     178.000      4.72000
******     151.000      4.34000
******     130.000      4.03000
******     124.000      3.94000
******     119.000      3.86000
******     108.000      3.67000
******      97.000      3.48000
******      85.000      3.26000
******      84.000      3.24000
******      78.000      3.12000
******      77.000      3.10000
******      76.000      3.08000
******      78.000      3.12000
******      92.000      3.39000
******      95.000      3.45000
******     105.000      3.62000
******     105.000      3.62000
******     103.000      3.59000
******      90.000      3.35000
******      91.000      3.37000
******      83.000      3.22000
******      76.000      3.08000
******      71.000      2.98000
******      66.000      2.87000
******      69.000      2.94000
******      67.000      2.89000
******      69.000      2.94000
******      68.000      2.92000
******      67.000      2.89000
******      69.000      2.94000
******      70.000      2.96000
******      76.000      3.08000
******      88.000      3.32000
******      99.000      3.52000
******     115.000      3.79000
******     126.000      3.97000
******     142.000      4.21000
******     156.000      4.42000
******     168.000      4.58000
******     161.000      4.49000
******     152.000      4.36000
******     135.000      4.11000
******     123.000      4.19000
******     118.000      3.84000
******     121.000      4.16000
******     133.000      4.36000
******     177.000      5.03000
******     234.000      6.84000
******     298.000      8.63000
******     402.000     10.02000
******     539.000     10.38000
******     607.000      9.31000
******     581.000      9.11000
******     494.000      9.94000
******     407.000     10.09000
******     409.000      7.15000
******     374.000      7.90000
******     397.000      7.04000
******     377.000      6.86000
******     374.000      6.84000
******     366.000      6.76000
******     329.000      6.41000
******     308.000      7.16000
******     298.000      7.05000
******     311.000      7.20000
******     313.000      6.69000
******     290.000      6.44000
******     251.000      5.99000
******     200.000      5.35000
******     161.000      4.80000
******     126.000      4.24000
******     100.000      3.78000
******      91.000      3.61000
******      82.000      3.42000
******      76.000      3.08000
******      74.000      3.04000
******      69.000      2.94000
******      67.000      2.89000
******      68.000      2.92000
******      64.000      2.83000
******      65.000      2.85000
******      67.000      2.89000
******      67.000      2.89000
******      65.000      2.85000
******      70.000      2.96000
******      72.000      3.00000
******      66.000      2.87000
******      71.000      2.98000
******      71.000      2.98000
******      71.000      2.98000
******      75.000      3.06000
******      81.000      3.18000
******      89.000      3.34000
******     112.000      3.74000
******     144.000      4.54000
******     190.000      5.63000
******     191.000      9.77000
******     238.000      7.71000
******     261.000      7.22000
******     275.000      6.77000
******     285.000      6.89000
******     298.000      6.52000
******     272.000      7.38000
******     254.000      7.13000
******     252.000      7.10000
******     262.000      7.24000
******     289.000      7.60000
******     329.000      6.86000
******     355.000      7.69000
******     409.000      8.26000
******     458.000      8.74000
******     511.000      9.23000
******     541.000      9.50000
******     561.000      8.95000
******     534.000      9.43000
******     492.000      9.06000
******     447.000      8.63000
******     390.000      8.06000
******     347.000      8.33000
******     356.000      7.70000
******     384.000      8.00000
******     458.000      9.57000
******     566.000     10.64000
******     651.000     11.41000
******     695.000     10.76000
******     610.000     11.05000
******     504.000     10.04000
******     361.000      9.50000
******     226.000      8.68000
******     179.000      6.69000
******     128.000      5.66000
******     117.000      4.09000
******      98.000      3.74000
******      88.000      3.55000
******      89.000      3.57000
******      99.000      3.76000
******     110.000      4.28000
******     145.000      4.92000
******     177.000      5.43000
******     200.000      6.32000
******     215.000      6.56000
******     234.000      6.84000
******     232.000      6.22000
******     203.000      5.82000
******     182.000      5.51000
******     154.000      5.07000
******     133.000      4.71000
******     120.000      4.14000
******     107.000      3.91000
******      96.000      3.70000
******      90.000      3.59000
******      87.000      3.53000
******      79.000      3.36000
******      70.000      3.16000
******      71.000      3.18000
******      74.000      3.25000
******      77.000      3.32000
******      73.000      3.23000
******      76.000      3.30000
******      77.000      3.32000
******      78.000      3.34000
******      76.000      3.30000
******      77.000      3.32000
******      79.000      3.36000
******      83.000      3.44000
******      92.000      3.92000
******     113.000      4.34000
******     130.000      5.70000
******     184.000      6.78000
******     236.000      8.87000
******     283.000     11.90000
******     359.000     13.40000
******     532.000     10.32000
******     617.000      9.39000
******     619.000      9.40000
******     602.000      9.27000
******     560.000      8.94000
******     513.000      8.56000
******     427.000      7.81000
******     332.000      8.15000
******     303.000      6.58000
******     265.000      6.15000
******     244.000      5.90000
******     243.000      5.89000
******     245.000      5.92000
******     229.000      6.18000
******     238.000      5.83000
******     213.000      5.52000
******     187.000      5.17000
******     170.000      4.93000
******     152.000      4.66000
******     132.000      4.34000
******     123.000      4.19000
******     124.000      4.21000
******     117.000      4.09000
******     119.000      4.12000
******     120.000      4.14000
******     129.000      4.64000
******     168.000      4.90000
******     213.000      5.96000
******     277.000      6.79000
******     343.000      7.00000
******     409.000      7.64000
******     466.000      8.16000
******     487.000      8.34000
******     482.000      8.96000
******     481.000      8.29000
******     458.000      8.09000
******     411.000      7.66000
******     355.000      7.12000
******     299.000      6.54000
******     231.000      5.74000
******     193.000      5.25000
******     148.000      4.60000
******     123.000      4.53000
******      95.000      4.36000
******      94.000      5.60000
******      94.000      4.85000
******      90.000      4.74000
******     111.000      4.71000
******     130.000      5.70000
******     168.000      6.48000
******     261.000      8.08000
******     356.000      9.43000
******     468.000     10.82000
******     600.000     10.95000
******     652.000     11.42000
******     641.000     12.66000
******     608.000     12.33000
******     613.000     10.11000
******     568.000      9.73000
******     548.000      9.56000
******     516.000      9.27000
******     480.000      8.94000
******     394.000      8.88000
******     328.000      8.10000
******     266.000      8.15000
******     222.000      6.66000
******     158.000      5.62000
******     133.000      4.71000
******     108.000      4.24000
******      92.000      3.92000
******      90.000      3.87000
******      84.000      3.74000
******      84.000      3.74000
******      80.000      3.65000
******      75.000      3.54000
******      76.000      3.56000
******      72.000      3.46000
******      75.000      3.54000
******      74.000      3.51000
******      80.000      4.00000
******      99.000      4.06000
******     101.000      4.10000
******     125.000      4.56000
******     125.000      4.56000
******     147.000      4.95000
******     140.000      4.83000
******     139.000      4.81000
******     132.000      4.69000
******     131.000      4.67000
******     140.000      4.83000
******     146.000      4.93000
******     151.000      5.02000
******     166.000      5.26000
******     182.000      5.51000
******     184.000      5.54000
******     172.000      5.35000
******     185.000      5.55000
******     180.000      5.48000
******     202.000      5.80000
******     196.000      5.72000
******     212.000      5.94000
******     235.000      6.26000
******     227.000      6.74000
******     227.000      6.15000
******     227.000      6.15000
******     223.000      6.68000
******     239.000      6.91000
******     254.000      7.13000
******     288.000      7.59000
******     307.000      7.84000
******     308.000      7.85000
******     282.000      7.51000
******     246.000      6.40000
******     198.000      5.74000
******     162.000      5.20000
******     128.000      4.62000
******     101.000      4.49000
******     104.000      4.16000
******      95.000      3.98000
******     104.000      4.16000
******     127.000      4.60000
******     149.000      4.98000
******     167.000      5.78000
******     186.000      6.82000
******     229.000      6.18000
******     242.000      6.35000
******     225.000      7.50000
******     217.000      7.37000
******     208.000      8.33000
******     257.000      8.02000
******     281.000      8.38000
******     322.000      8.02000
******     333.000      8.16000
******     327.000      8.09000
******     312.000      7.90000
******     290.000      6.95000
******     258.000      6.56000
******     208.000      6.45000
******     177.000      5.43000
******     142.000      4.86000
******     128.000      4.62000
******     117.000      4.42000
******     118.000      4.43000
******     130.000      5.10000
******     134.000      5.79000
******     192.000      6.20000
******     239.000      6.91000
******     285.000      8.44000
******     306.000      8.75000
******     335.000      9.15000
******     334.000      9.14000
******     312.000      7.90000
******     290.000      7.62000
******     261.000      7.22000
******     207.000      7.19000
******     230.000      6.19000
******     223.000      6.68000
******     263.000      7.25000
******     305.000      7.81000
******     360.000      7.75000
******     393.000      8.09000
******     358.000      9.46000
******     351.000     10.82000
******     310.000     10.17000
******     268.000     11.58000
******     209.000     10.22000
******     165.000      9.08000
******     156.000      6.24000
******     125.000      5.59000
******     106.000      5.15000
******      90.000      4.74000
******      92.000      4.29000
******      90.000      4.24000
******      81.000      4.02000
******      83.000      4.07000
******      81.000      4.02000
******      82.000      4.05000
******      83.000      4.07000
******      86.000      4.15000
******      86.000      4.15000
******      94.000      4.34000
******     102.000      4.52000
******     116.000      4.82000
******     127.000      5.04000
******     142.000      5.33000
******     149.000      5.46000
******     174.000      5.90000
******     189.000      6.15000
******     202.000      6.36000
******     205.000      6.40000
******     197.000      6.28000
******     190.000      6.16000
******     193.000      6.21000
******     177.000      5.95000
******     162.000      5.69000
******     164.000      5.73000
******     155.000      5.57000
******     144.000      5.37000
******     158.000      5.62000
******     143.000      5.35000
******     165.000      5.74000
******     180.000      6.00000
******     185.000      6.08000
******     199.000      6.31000
******     182.000      6.03000
******     202.000      6.36000
******     194.000      6.23000
******     166.000      5.76000
******     151.000      5.50000
******     139.000      5.27000
******     133.000      5.16000
******     121.000      4.92000
******     123.000      4.96000
******     114.000      4.77000
******     113.000      4.75000
******     115.000      4.80000
******     117.000      4.84000
******     123.000      4.96000
******     116.000      4.82000
******     109.000      4.67000
******     102.000      4.52000
******      98.000      4.43000
******      94.000      4.34000
******      86.000      4.15000
******      90.000      4.24000
******      92.000      4.29000
******      94.000      4.34000
******      95.000      4.36000
******     105.000      4.58000
******     112.000      4.73000
******     111.000      4.71000
******     123.000      4.96000
******     126.000      5.61000
******     139.000      5.89000
******     153.000      5.53000
******     145.000      6.02000
******     163.000      5.71000
******     156.000      5.59000
******     150.000      5.48000
******     138.000      5.25000
******     123.000      4.96000
******     111.000      4.71000
******     105.000      4.58000
******     102.000      4.52000
******      94.000      4.34000
******      99.000      4.45000
******     112.000      4.73000
******     123.000      4.96000
******     145.000      5.39000
******     169.000      5.81000
******     184.000      6.07000
******     200.000      6.32000
******     219.000      6.62000
******     210.000      7.25000
******     210.000      7.25000
******     215.000      6.56000
******     207.000      6.43000
******     206.000      6.42000
******     170.000      5.83000
******     157.000      5.60000
******     149.000      5.46000
******     137.000      5.23000
******     127.000      5.04000
******     119.000      4.88000
******     104.000      4.56000
******     105.000      4.58000
******     102.000      4.52000
******      90.000      4.24000
******      79.000      4.44000
******      78.000      3.95000
******      78.000      3.95000
******      81.000      4.02000
******      72.000      3.79000
******      67.000      3.66000
******      71.000      3.77000
******      73.000      3.82000
******      75.000      3.87000
******      77.000      3.92000
******      73.000      3.82000
******      71.000      3.77000
******      72.000      3.79000
******      72.000      3.79000
******      92.000      4.80000
******      86.000      5.35000
******      92.000      5.54000
******      87.000      5.39000
******      89.000      5.45000
******      89.000      4.72000
******      91.000      4.77000
******      90.000      5.48000
******     111.000      5.27000
******     122.000      5.52000
******     145.000      6.02000
******     195.000      6.98000
******     267.000      8.17000
******     336.000     10.58000
******     382.000     13.82000
******     451.000     15.02000
******     526.000     16.22000
******     510.000     22.58000
******     628.000     17.72000
******     543.000     23.30000
******     603.000     17.36000
******     453.000     21.28000
******     453.000     15.05000
******     415.000     14.40000
******     358.000     13.38000
******     309.000     12.43000
******     310.000      8.80000
******     267.000      8.17000
******     222.000      7.45000
******     211.000      7.26000
******     189.000      6.87000
******     162.000      6.36000
******     145.000      6.02000
******     145.000      6.02000
******     137.000      5.85000
******     124.000      5.57000
******     120.000      5.48000
******     123.000      5.55000
******     137.000      5.85000
******     158.000      6.28000
******     169.000      6.50000
******     183.000      6.76000
******     174.000      7.62000
******     214.000      7.31000
******     229.000      7.57000
******     234.000      7.65000
******     244.000      7.81000
******     243.000      7.79000
******     241.000      7.76000
******     229.000      7.57000
******     214.000      7.31000
******     197.000      7.02000
******     180.000      6.71000
******     162.000      6.36000
******     148.000      6.08000
******     141.000      5.94000
******     122.000      5.52000
******     116.000      5.39000
******     116.000      5.39000
******     102.000      5.05000
******     103.000      5.07000
******     113.000      5.32000
******     116.000      5.39000
******     118.000      5.43000
******     124.000      5.57000
******     137.000      5.85000
******     143.000      5.98000
******     156.000      6.24000
******     158.000      6.28000
******     156.000      6.24000
******     156.000      6.24000
******     149.000      6.10000
******     129.000      5.68000
******     132.000      5.74000
******     119.000      5.45000
******     101.000      5.02000
******      96.000      4.90000
******      81.000      4.50000
******      81.000      4.50000
******      80.000      4.47000
******      75.000      4.33000
******      89.000      4.72000
******      88.000      4.69000
******      91.000      4.77000
******      89.000      4.72000
******      87.000      4.66000
******      87.000      4.66000
******      87.000      4.66000
******      91.000      4.77000
******      94.000      4.85000
******      96.000      4.90000
******      89.000      4.72000
******      81.000      4.50000
******      77.000      4.39000
******      80.000      4.47000
******      74.000      4.30000
******      79.000      4.44000
******      68.000      4.12000
******      87.000      4.66000
******      83.000      4.56000
******      90.000      4.74000
******      90.000      4.74000
******      98.000      4.95000
******     105.000      5.12000
******     112.000      5.29000
******     120.000      5.48000
******     112.000      5.29000
******     111.000      5.27000
******     116.000      5.39000
******     103.000      5.07000
******     113.000      5.32000
******     105.000      5.12000
******      97.000      4.92000
******      95.000      4.87000
******      93.000      4.82000
******      92.000      4.80000
******      76.000      4.36000
******      81.000      4.50000
******      81.000      4.50000
******      78.000      4.42000
******      72.000      4.90000
******      83.000      6.44000
******      74.000      6.08000
******      73.000      6.04000
******      69.000      5.87000
******      73.000      4.93000
******      88.000      5.42000
******      92.000      5.54000
******      89.000      5.45000
******      97.000      5.69000
******     110.000      6.06000
******     109.000      6.03000
******     133.000      6.66000
******     140.000      6.83000
******     148.000      7.02000
******     145.000      6.95000
******     151.000      7.09000
******     155.000      7.19000
******     176.000      7.66000
******     158.000      7.26000
******     154.000      7.16000
******     150.000      7.07000
******     164.000      7.39000
******     176.000      7.66000
******     185.000      7.85000
******     191.000      7.98000
******     220.000      8.56000
******     219.000      8.54000
******     236.000      8.87000
******     254.000      9.20000
******     257.000      9.26000
******     239.000     10.93000
******     259.000      9.29000
******     258.000      9.27000
******     244.000      9.02000
******     238.000      8.91000
******     212.000      8.41000
******     205.000      8.27000
******     183.000      7.81000
******     163.000      7.37000
******     166.000      7.44000
******     138.000      6.78000
******     145.000      6.95000
******     149.000      7.05000
******     162.000      7.35000
******     181.000      7.77000
******     216.000      8.49000
******     253.000      9.18000
******     260.000     11.40000
******     309.000     12.43000
******     359.000     13.40000
******     391.000     13.98000
******     432.000     14.70000
******     476.000     15.43000
******     502.000     15.84000
******     553.000     13.58000
******     527.000     13.25000
******     475.000     12.58000
******     483.000     12.69000
******     416.000     11.78000
******     389.000     11.39000
******     367.000     11.06000
******     340.000     10.65000
******     314.000     10.23000
******     300.000     10.00000
******     291.000      9.85000
******     271.000      9.50000
******     266.000      9.42000
******     265.000      9.40000
******     260.000      9.31000
******     250.000      9.13000
******     235.000      8.85000
******     208.000      8.33000
******     203.000      8.23000
******     187.000      7.90000
******     161.000      7.33000
******     138.000      6.78000
******     131.000      6.61000
******     117.000      6.24000
******      99.000      5.74000
******      98.000      5.72000
******      87.000      5.39000
******      92.000      5.54000
******      84.000      5.29000
******      82.000      5.23000
******      83.000      5.26000
******      91.000      5.51000
******      88.000      5.42000
******     100.000      5.77000
******     111.000      6.08000
******     125.000      6.45000
******     153.000      7.14000
******     162.000      7.35000
******     197.000      8.10000
******     222.000      8.60000
******     267.000      9.43000
******     304.000     10.07000
******     324.000     12.73000
******     361.000     13.44000
******     380.000     13.78000
******     453.000     12.29000
******     460.000     12.38000
******     486.000     12.73000
******     485.000     12.71000
******     478.000     12.62000
******     440.000     12.11000
******     417.000     11.79000
******     394.000     11.46000
******     336.000     10.58000
******     307.000     10.12000
******     270.000      9.49000
******     253.000      9.18000
******     229.000      8.74000
******     195.000      8.06000
******     170.000      7.53000
******     156.000      7.21000
******     130.000      6.58000
******     122.000      6.38000
******     113.000      6.14000
******     112.000      6.11000
******     100.000      5.77000
******      85.000      6.52000
******      90.000      6.71000
******      89.000      6.67000
******      76.000      6.16000
******      88.000      6.63000
******     101.000      7.11000
******      86.000      6.56000
******      89.000      6.67000
******      90.000      6.71000
******     105.000      7.25000
******     105.000      7.25000
******     109.000      7.38000
******     106.000      7.28000
******     107.000      7.31000
******     104.000      7.21000
******     119.000      7.71000
******     102.000      7.14000
******     100.000      7.07000
******     101.000      7.11000
******     100.000      7.07000
******      93.000      6.82000
******     105.000      7.25000
******     112.000      7.48000
******     109.000      7.38000
******     107.000      7.31000
******     101.000      7.11000
******      94.000      6.86000
******     102.000      7.14000
******      89.000      6.67000
******      89.000      6.67000
******      98.000      7.00000
******      86.000      6.56000
******      93.000      6.82000
******      86.000      6.56000
******      87.000      6.60000
******      94.000      6.86000
******      95.000      6.89000
******      97.000      6.96000
******     100.000      7.07000
******     107.000      7.31000
******     111.000      7.45000
******     115.000      7.58000
******     126.000      7.94000
******     128.000      8.00000
******     123.000      7.84000
******     124.000      7.87000
******     137.000      8.28000
******     122.000      7.81000
******     138.000      8.31000
******     132.000      8.12000
******     130.000      8.06000
******     127.000      7.97000
******     136.000      8.25000
******     138.000      8.31000
******     155.000      8.80000
******     146.000      8.54000
******     158.000      8.89000
******     142.000      8.43000
******     145.000      8.51000
******     158.000      8.89000
******     173.000      9.30000
******     174.000      9.33000
******     178.000      9.43000
******     156.000      8.83000
******     166.000      9.11000
******     156.000      8.83000
******     148.000      8.60000
******     159.000      8.92000
******     150.000      8.66000
******     138.000      8.31000
******     134.000      8.19000
******     133.000      8.15000
******     141.000      8.40000
******     148.000      8.60000
******     126.000      7.94000
******     151.000      8.69000
******     143.000      8.46000
******     143.000      8.46000
******     150.000      8.66000
******     159.000      8.92000
******     168.000      9.17000
******     155.000      8.80000
******     185.000      9.62000
******     196.000      9.90000
******     194.000      9.85000
******     204.000     10.10000
******     218.000     10.44000
******     215.000     10.37000
******     206.000     10.15000
******     233.000     10.79000
******     235.000     10.84000
******     239.000     10.93000
******     235.000     10.84000
******     222.000     10.54000
******     220.000     10.49000
******     228.000     10.68000
******     219.000     10.46000
******     219.000     10.46000
******     218.000     10.44000
******     221.000     10.51000
******     203.000     10.07000
******     203.000     10.07000
******     180.000      9.49000
******     178.000      9.43000
******     175.000      9.35000
******     145.000      8.51000
******     152.000      8.72000
******     134.000      8.19000
******     121.000      7.78000
******     132.000      8.12000
******     124.000      7.87000
******     115.000      7.58000
******     122.000      7.81000
******     124.000      7.87000
******     118.000      7.68000
******     113.000      7.52000
******     123.000      7.84000
******     119.000      7.71000
******     135.000      8.22000
******     129.000      8.03000
******     118.000     10.86000
******     127.000     11.27000
******     130.000     11.40000
******     115.000     10.72000
******     126.000     11.22000
******     128.000     11.31000
******     139.000     11.79000
******     136.000     11.66000
******     126.000     11.22000
******     152.000     12.33000
******     163.000     12.77000
******     159.000     12.61000
******     158.000     12.57000
******     177.000     13.30000
******     175.000     13.23000
******     182.000     13.49000
******     202.000     14.21000
******     221.000     14.87000
******     189.000     13.75000
******     220.000     14.83000
******     206.000     14.35000
******     215.000     14.66000
******     238.000     15.43000
******     224.000     14.97000
******     251.000     15.84000
******     222.000     14.90000
******     285.000     16.88000
******     251.000     15.84000
******     339.000     18.41000
******     293.000     17.12000
******     293.000     17.12000
******     296.000     17.20000
******     334.000     18.28000
******     295.000     17.18000
******     301.000     17.35000
******     293.000     17.12000
******     294.000     17.15000
******     295.000     17.18000
******     267.000     16.34000
******     260.000     16.12000
******     256.000     16.00000
******     241.000     15.52000
******     271.000     16.46000
******     270.000     16.43000
******     234.000     15.30000
******     291.000     17.06000
******     241.000     15.52000
******     251.000     15.84000
******     254.000     15.94000
******     296.000     17.20000
******     327.000     18.08000
******     298.000     17.26000
******     342.000     18.49000
******     355.000     18.84000
******     341.000     18.47000
******     411.000     20.27000
******     393.000     19.82000
******     413.000     20.32000
******     431.000     20.76000
******     410.000     20.25000
******     420.000     20.49000
******     467.000     21.61000
******     419.000     20.47000
******     469.000     21.66000
******     473.000     21.75000
******     452.000     21.26000
******     497.000     22.29000
******     468.000     21.63000
******     540.000     23.24000
******     494.000     22.23000
******     525.000     22.91000
******     525.000     22.91000
******     537.000     23.17000
******     489.000     22.11000
******     532.000     23.07000
******     458.000     21.40000
******     469.000     21.66000
******     418.000     20.45000
******     445.000     21.10000
******     418.000     20.45000
******     383.000     19.57000
******     368.000     19.18000
******     334.000     18.28000
******     307.000     17.52000
******     289.000     17.00000
******     296.000     17.20000
******     255.000     15.97000
******     242.000     15.56000
******     223.000     14.93000
******     229.000     15.13000
******     244.000     15.62000
******     261.000     16.16000
******     246.000     15.68000
******     254.000     15.94000
******     255.000     15.97000
******     266.000     16.31000
******     245.000     15.65000
******     276.000     16.61000
******     249.000     15.78000
******     220.000     14.83000
******     221.000     14.87000
******     230.000     15.17000
******     279.000     16.70000
******     264.000     16.25000
******     221.000     14.87000
******     216.000     14.70000
******     207.000     14.39000
******     194.000     13.93000
******     215.000     14.66000
******     191.000     13.82000
******     207.000     14.39000
******     189.000     13.75000
******     163.000     12.77000
******     161.000     12.69000
******     183.000     13.53000
******     148.000     12.17000
******     147.000     12.12000
******     140.000     11.83000
******     142.000     11.92000
******     128.000     11.31000
